# This document gives the data used to make Figure 1(b) in the accompanying
# LIGO Document LIGO-P1200087.
# The first column is the frequency (Hz), the remaining columns are the 
# amplitude spectral densities (Hz^{-1/2}).
#
# For questions regarding the use of this material, please contact the LSC
# spokesperson Gabriela Gonzalez <gonzalez@lsu.edu> and the Virgo 
# spokesperson Jean-Yves Vinet <Jean-Yves.Vinet@oca.eu>.
#
10 5.00221e-20 5.12918e-21 3.19888e-21 3.19823e-21 1.48635e-21 1.10062e-21 1.10758e-21
10.0231 4.95635e-20 5.08218e-21 3.1695e-21 3.16885e-21 1.47254e-21 1.09031e-21 1.09729e-21
10.0462 4.9109e-20 5.03561e-21 3.14039e-21 3.13974e-21 1.45888e-21 1.0801e-21 1.08707e-21
10.0693 4.86587e-20 4.98947e-21 3.11155e-21 3.1109e-21 1.44534e-21 1.06998e-21 1.07692e-21
10.0926 4.82125e-20 4.94375e-21 3.08298e-21 3.08233e-21 1.43193e-21 1.05997e-21 1.06695e-21
10.1158 4.77705e-20 4.89846e-21 3.05467e-21 3.05402e-21 1.41864e-21 1.05005e-21 1.057e-21
10.1392 4.73324e-20 4.85358e-21 3.02662e-21 3.02597e-21 1.40549e-21 1.04024e-21 1.04721e-21
10.1625 4.68984e-20 4.80912e-21 2.99883e-21 2.99818e-21 1.39245e-21 1.03051e-21 1.03745e-21
10.186 4.64684e-20 4.76506e-21 2.97129e-21 2.97065e-21 1.37955e-21 1.02088e-21 1.02785e-21
10.2095 4.60423e-20 4.72141e-21 2.94402e-21 2.94337e-21 1.36676e-21 1.01135e-21 1.01831e-21
10.233 4.56202e-20 4.67816e-21 2.91699e-21 2.91634e-21 1.35409e-21 1.00191e-21 1.00886e-21
10.2566 4.52019e-20 4.63531e-21 2.89021e-21 2.88956e-21 1.34155e-21 9.92554e-22 9.99506e-22
10.2803 4.47874e-20 4.59285e-21 2.86368e-21 2.86303e-21 1.32912e-21 9.83294e-22 9.90262e-22
10.304 4.43768e-20 4.55078e-21 2.8374e-21 2.83675e-21 1.31681e-21 9.74123e-22 9.81088e-22
10.3277 4.39699e-20 4.5091e-21 2.81136e-21 2.81071e-21 1.30462e-21 9.6504e-22 9.71981e-22
10.3515 4.35667e-20 4.4678e-21 2.78555e-21 2.78491e-21 1.29254e-21 9.56046e-22 9.62979e-22
10.3754 4.31672e-20 4.42689e-21 2.75999e-21 2.75934e-21 1.28058e-21 9.47138e-22 9.54081e-22
10.3993 4.27714e-20 4.38634e-21 2.73466e-21 2.73401e-21 1.26873e-21 9.38316e-22 9.45249e-22
10.4233 4.23793e-20 4.34618e-21 2.70957e-21 2.70892e-21 1.25699e-21 9.29579e-22 9.36517e-22
10.4474 4.19907e-20 4.30638e-21 2.6847e-21 2.68406e-21 1.24536e-21 9.20926e-22 9.27885e-22
10.4714 4.16057e-20 4.26694e-21 2.66007e-21 2.65942e-21 1.23384e-21 9.12356e-22 9.19282e-22
10.4956 4.12242e-20 4.22787e-21 2.63567e-21 2.63502e-21 1.22243e-21 9.03869e-22 9.10811e-22
10.5198 4.08462e-20 4.18916e-21 2.61148e-21 2.61084e-21 1.21112e-21 8.95463e-22 9.02403e-22
10.5441 4.04717e-20 4.1508e-21 2.58753e-21 2.58688e-21 1.19993e-21 8.87138e-22 8.9409e-22
10.5684 4.01006e-20 4.1128e-21 2.56379e-21 2.56314e-21 1.18883e-21 8.78892e-22 8.85838e-22
10.5927 3.97329e-20 4.07514e-21 2.54027e-21 2.53962e-21 1.17785e-21 8.70726e-22 8.77647e-22
10.6172 3.93686e-20 4.03783e-21 2.51697e-21 2.51632e-21 1.16696e-21 8.62638e-22 8.69581e-22
10.6417 3.90077e-20 4.00087e-21 2.49388e-21 2.49324e-21 1.15618e-21 8.54627e-22 8.61574e-22
10.6662 3.865e-20 3.96424e-21 2.47101e-21 2.47036e-21 1.1455e-21 8.46693e-22 8.53625e-22
10.6908 3.82956e-20 3.92795e-21 2.44835e-21 2.4477e-21 1.13492e-21 8.38835e-22 8.45766e-22
10.7154 3.79445e-20 3.892e-21 2.42589e-21 2.42525e-21 1.12444e-21 8.31051e-22 8.37964e-22
10.7401 3.75966e-20 3.85637e-21 2.40364e-21 2.403e-21 1.11405e-21 8.23342e-22 8.30251e-22
10.7649 3.72519e-20 3.82107e-21 2.3816e-21 2.38096e-21 1.10377e-21 8.15707e-22 8.22623e-22
10.7897 3.69104e-20 3.7861e-21 2.35976e-21 2.35912e-21 1.09358e-21 8.08144e-22 8.15052e-22
10.8146 3.65719e-20 3.75145e-21 2.33812e-21 2.33748e-21 1.08348e-21 8.00654e-22 8.07565e-22
10.8396 3.62366e-20 3.71711e-21 2.31669e-21 2.31604e-21 1.07348e-21 7.93235e-22 8.00162e-22
10.8646 3.59044e-20 3.68309e-21 2.29545e-21 2.2948e-21 1.06358e-21 7.85886e-22 7.92813e-22
10.8896 3.55752e-20 3.64939e-21 2.2744e-21 2.27376e-21 1.05376e-21 7.78607e-22 7.85516e-22
10.9147 3.5249e-20 3.61599e-21 2.25355e-21 2.25291e-21 1.04404e-21 7.71398e-22 7.78302e-22
10.9399 3.49258e-20 3.5829e-21 2.23289e-21 2.23225e-21 1.03441e-21 7.64257e-22 7.71168e-22
10.9651 3.46056e-20 3.55011e-21 2.21242e-21 2.21178e-21 1.02487e-21 7.57184e-22 7.64085e-22
10.9904 3.42883e-20 3.51763e-21 2.19214e-21 2.1915e-21 1.01542e-21 7.50178e-22 7.57081e-22
11.0157 3.3974e-20 3.48544e-21 2.17205e-21 2.1714e-21 1.00606e-21 7.43239e-22 7.50128e-22
11.0412 3.36625e-20 3.45355e-21 2.15214e-21 2.15149e-21 9.96781e-22 7.36366e-22 7.43278e-22
11.0666 3.33538e-20 3.42195e-21 2.13241e-21 2.13177e-21 9.87593e-22 7.29558e-22 7.36452e-22
11.0921 3.3048e-20 3.39065e-21 2.11287e-21 2.11223e-21 9.7849e-22 7.22814e-22 7.29701e-22
11.1177 3.2745e-20 3.35963e-21 2.0935e-21 2.09286e-21 9.69472e-22 7.16134e-22 7.23024e-22
11.1433 3.24448e-20 3.32889e-21 2.07432e-21 2.07368e-21 9.60538e-22 7.09518e-22 7.16396e-22
11.169 3.21474e-20 3.29844e-21 2.05531e-21 2.05467e-21 9.51688e-22 7.02964e-22 7.09841e-22
11.1948 3.18526e-20 3.26826e-21 2.03647e-21 2.03583e-21 9.4292e-22 6.96473e-22 7.03359e-22
11.2206 3.15606e-20 3.23837e-21 2.01781e-21 2.01717e-21 9.34235e-22 6.90043e-22 6.96922e-22
11.2465 3.12712e-20 3.20875e-21 1.99933e-21 1.99869e-21 9.2563e-22 6.83673e-22 6.90556e-22
11.2724 3.09845e-20 3.1794e-21 1.98101e-21 1.98037e-21 9.17106e-22 6.77364e-22 6.84237e-22
11.2984 3.07005e-20 3.15032e-21 1.96286e-21 1.96222e-21 9.08661e-22 6.71115e-22 6.77987e-22
11.3245 3.0419e-20 3.12151e-21 1.94487e-21 1.94423e-21 9.00295e-22 6.64925e-22 6.71805e-22
11.3506 3.01401e-20 3.09296e-21 1.92706e-21 1.92642e-21 8.92007e-22 6.58793e-22 6.65668e-22
11.3768 2.98638e-20 3.06467e-21 1.9094e-21 1.90876e-21 8.83796e-22 6.5272e-22 6.59597e-22
11.403 2.959e-20 3.03665e-21 1.89191e-21 1.89127e-21 8.75662e-22 6.46703e-22 6.53571e-22
11.4293 2.93187e-20 3.00888e-21 1.87458e-21 1.87394e-21 8.67603e-22 6.40744e-22 6.4761e-22
11.4556 2.90499e-20 2.98136e-21 1.85741e-21 1.85677e-21 8.5962e-22 6.34841e-22 6.41691e-22
11.4821 2.87836e-20 2.9541e-21 1.8404e-21 1.83976e-21 8.51711e-22 6.28994e-22 6.3586e-22
11.5085 2.85197e-20 2.92709e-21 1.82354e-21 1.82291e-21 8.43876e-22 6.23202e-22 6.30048e-22
11.5351 2.82582e-20 2.90033e-21 1.80684e-21 1.80621e-21 8.36114e-22 6.17464e-22 6.24321e-22
11.5617 2.79992e-20 2.87381e-21 1.7903e-21 1.78966e-21 8.28425e-22 6.11781e-22 6.18635e-22
11.5883 2.77425e-20 2.84754e-21 1.7739e-21 1.77327e-21 8.20806e-22 6.06151e-22 6.1299e-22
11.6151 2.74882e-20 2.82151e-21 1.75766e-21 1.75702e-21 8.13259e-22 6.00575e-22 6.07426e-22
11.6418 2.72361e-20 2.79571e-21 1.74156e-21 1.74093e-21 8.05783e-22 5.95051e-22 6.01883e-22
11.6687 2.69865e-20 2.77016e-21 1.72562e-21 1.72498e-21 7.98375e-22 5.89579e-22 5.96419e-22
11.6956 2.67391e-20 2.74484e-21 1.70982e-21 1.70918e-21 7.91037e-22 5.84159e-22 5.90994e-22
11.7226 2.64939e-20 2.71975e-21 1.69416e-21 1.69353e-21 7.83767e-22 5.7879e-22 5.85628e-22
11.7496 2.6251e-20 2.69489e-21 1.67865e-21 1.67802e-21 7.76565e-22 5.73472e-22 5.80301e-22
11.7767 2.60104e-20 2.67026e-21 1.66329e-21 1.66265e-21 7.6943e-22 5.68204e-22 5.75031e-22
11.8039 2.57719e-20 2.64585e-21 1.64806e-21 1.64743e-21 7.62362e-22 5.62985e-22 5.69817e-22
11.8311 2.55357e-20 2.62167e-21 1.63297e-21 1.63234e-21 7.55359e-22 5.57816e-22 5.64641e-22
11.8584 2.53016e-20 2.59772e-21 1.61803e-21 1.61739e-21 7.48422e-22 5.52696e-22 5.5952e-22
11.8857 2.50696e-20 2.57398e-21 1.60322e-21 1.60258e-21 7.41549e-22 5.47623e-22 5.54437e-22
11.9131 2.48398e-20 2.55046e-21 1.58854e-21 1.58791e-21 7.3474e-22 5.42599e-22 5.49408e-22
11.9406 2.46121e-20 2.52715e-21 1.57401e-21 1.57337e-21 7.27994e-22 5.37622e-22 5.44433e-22
11.9681 2.43864e-20 2.50406e-21 1.5596e-21 1.55897e-21 7.21312e-22 5.32692e-22 5.39493e-22
11.9957 2.41629e-20 2.48119e-21 1.54533e-21 1.5447e-21 7.14691e-22 5.27809e-22 5.34607e-22
12.0234 2.39414e-20 2.45852e-21 1.53119e-21 1.53056e-21 7.08133e-22 5.22971e-22 5.29773e-22
12.0511 2.37219e-20 2.43606e-21 1.51718e-21 1.51655e-21 7.01635e-22 5.18179e-22 5.24973e-22
12.0789 2.35044e-20 2.41381e-21 1.5033e-21 1.50267e-21 6.95198e-22 5.13433e-22 5.20225e-22
12.1068 2.3289e-20 2.39176e-21 1.48954e-21 1.48891e-21 6.88821e-22 5.08731e-22 5.15528e-22
12.1347 2.30755e-20 2.36991e-21 1.47592e-21 1.47529e-21 6.82503e-22 5.04073e-22 5.10864e-22
12.1627 2.28639e-20 2.34826e-21 1.46241e-21 1.46178e-21 6.76244e-22 4.9946e-22 5.0625e-22
12.1907 2.26543e-20 2.32682e-21 1.44904e-21 1.44841e-21 6.70043e-22 4.9489e-22 5.01668e-22
12.2188 2.24467e-20 2.30557e-21 1.43578e-21 1.43515e-21 6.639e-22 4.90363e-22 4.97136e-22
12.247 2.22409e-20 2.28451e-21 1.42265e-21 1.42202e-21 6.57815e-22 4.85879e-22 4.92652e-22
12.2752 2.2037e-20 2.26365e-21 1.40964e-21 1.40901e-21 6.51786e-22 4.81437e-22 4.882e-22
12.3035 2.1835e-20 2.24298e-21 1.39674e-21 1.39612e-21 6.45813e-22 4.77038e-22 4.83796e-22
12.3319 2.16348e-20 2.2225e-21 1.38397e-21 1.38335e-21 6.39896e-22 4.72679e-22 4.79438e-22
12.3603 2.14365e-20 2.20221e-21 1.37132e-21 1.37069e-21 6.34035e-22 4.68362e-22 4.75112e-22
12.3888 2.124e-20 2.1821e-21 1.35878e-21 1.35815e-21 6.28227e-22 4.64086e-22 4.70832e-22
12.4174 2.10453e-20 2.16218e-21 1.34635e-21 1.34573e-21 6.22474e-22 4.5985e-22 4.66597e-22
12.4461 2.08524e-20 2.14244e-21 1.33404e-21 1.33342e-21 6.16775e-22 4.55655e-22 4.62407e-22
12.4748 2.06613e-20 2.12288e-21 1.32185e-21 1.32122e-21 6.11129e-22 4.51499e-22 4.58248e-22
12.5035 2.04719e-20 2.10351e-21 1.30976e-21 1.30914e-21 6.05535e-22 4.47382e-22 4.54117e-22
12.5324 2.02842e-20 2.08431e-21 1.29779e-21 1.29717e-21 5.99994e-22 4.43305e-22 4.50044e-22
12.5613 2.00983e-20 2.06528e-21 1.28593e-21 1.2853e-21 5.94505e-22 4.39266e-22 4.46002e-22
12.5902 1.9914e-20 2.04644e-21 1.27417e-21 1.27355e-21 5.89066e-22 4.35265e-22 4.41988e-22
12.6193 1.97315e-20 2.02776e-21 1.26253e-21 1.26191e-21 5.83679e-22 4.31302e-22 4.3803e-22
12.6484 1.95506e-20 2.00926e-21 1.25099e-21 1.25037e-21 5.78342e-22 4.27377e-22 4.34101e-22
12.6775 1.93714e-20 1.99092e-21 1.23956e-21 1.23894e-21 5.73055e-22 4.23489e-22 4.302e-22
12.7068 1.91939e-20 1.97276e-21 1.22823e-21 1.22761e-21 5.67817e-22 4.19638e-22 4.26354e-22
12.7361 1.90179e-20 1.95476e-21 1.21701e-21 1.21639e-21 5.62628e-22 4.15824e-22 4.22534e-22
12.7654 1.88436e-20 1.93692e-21 1.20589e-21 1.20527e-21 5.57488e-22 4.12046e-22 4.18744e-22
12.7949 1.86709e-20 1.91926e-21 1.19488e-21 1.19426e-21 5.52396e-22 4.08303e-22 4.15005e-22
12.8244 1.84997e-20 1.90175e-21 1.18396e-21 1.18334e-21 5.47351e-22 4.04597e-22 4.11294e-22
12.8539 1.83302e-20 1.8844e-21 1.17315e-21 1.17253e-21 5.42354e-22 4.00926e-22 4.07609e-22
12.8836 1.81622e-20 1.86722e-21 1.16243e-21 1.16182e-21 5.37404e-22 3.9729e-22 4.03976e-22
12.9133 1.79957e-20 1.85019e-21 1.15182e-21 1.1512e-21 5.325e-22 3.93688e-22 4.00369e-22
12.9431 1.78307e-20 1.83331e-21 1.1413e-21 1.14068e-21 5.27642e-22 3.90121e-22 3.96799e-22
12.9729 1.76673e-20 1.8166e-21 1.13088e-21 1.13026e-21 5.2283e-22 3.86589e-22 3.93257e-22
13.0028 1.75054e-20 1.80003e-21 1.12055e-21 1.11994e-21 5.18063e-22 3.8309e-22 3.89751e-22
13.0328 1.73449e-20 1.78362e-21 1.11032e-21 1.10971e-21 5.13341e-22 3.79624e-22 3.86283e-22
13.0629 1.71859e-20 1.76736e-21 1.10019e-21 1.09957e-21 5.08663e-22 3.76192e-22 3.82851e-22
13.093 1.70284e-20 1.75125e-21 1.09015e-21 1.08953e-21 5.04029e-22 3.72793e-22 3.79446e-22
13.1232 1.68723e-20 1.73529e-21 1.0802e-21 1.07958e-21 4.99439e-22 3.69427e-22 3.76074e-22
13.1534 1.67177e-20 1.71947e-21 1.07034e-21 1.06973e-21 4.94892e-22 3.66093e-22 3.7273e-22
13.1838 1.65645e-20 1.7038e-21 1.06057e-21 1.05996e-21 4.90388e-22 3.62791e-22 3.6943e-22
13.2142 1.64126e-20 1.68827e-21 1.0509e-21 1.05028e-21 4.85926e-22 3.59521e-22 3.66155e-22
13.2447 1.62622e-20 1.67289e-21 1.04131e-21 1.0407e-21 4.81507e-22 3.56283e-22 3.62915e-22
13.2752 1.61132e-20 1.65764e-21 1.03181e-21 1.0312e-21 4.7713e-22 3.53076e-22 3.59698e-22
13.3058 1.59655e-20 1.64254e-21 1.0224e-21 1.02179e-21 4.72794e-22 3.49901e-22 3.56516e-22
13.3365 1.58192e-20 1.62758e-21 1.01308e-21 1.01247e-21 4.68499e-22 3.46756e-22 3.53368e-22
13.3672 1.56742e-20 1.61275e-21 1.00384e-21 1.00323e-21 4.64245e-22 3.43642e-22 3.50243e-22
13.3981 1.55305e-20 1.59806e-21 9.94686e-22 9.94077e-22 4.60031e-22 3.40559e-22 3.47162e-22
13.429 1.53882e-20 1.58351e-21 9.85618e-22 9.8501e-22 4.55857e-22 3.37505e-22 3.44104e-22
13.4599 1.52471e-20 1.56909e-21 9.76634e-22 9.76026e-22 4.51723e-22 3.34482e-22 3.41068e-22
13.491 1.51074e-20 1.5548e-21 9.67733e-22 9.67126e-22 4.47629e-22 3.31488e-22 3.38075e-22
13.5221 1.49689e-20 1.54064e-21 9.58914e-22 9.58308e-22 4.43574e-22 3.28525e-22 3.35104e-22
13.5533 1.48318e-20 1.52662e-21 9.50177e-22 9.49572e-22 4.39557e-22 3.2559e-22 3.32166e-22
13.5845 1.46958e-20 1.51272e-21 9.41521e-22 9.40916e-22 4.35579e-22 3.22685e-22 3.2925e-22
13.6158 1.45611e-20 1.49895e-21 9.32945e-22 9.32341e-22 4.31639e-22 3.19808e-22 3.26365e-22
13.6472 1.44277e-20 1.48531e-21 9.24449e-22 9.23845e-22 4.27737e-22 3.1696e-22 3.23512e-22
13.6787 1.42955e-20 1.47179e-21 9.16031e-22 9.15428e-22 4.23873e-22 3.14141e-22 3.2069e-22
13.7103 1.41645e-20 1.4584e-21 9.07692e-22 9.07089e-22 4.20046e-22 3.11351e-22 3.17898e-22
13.7419 1.40347e-20 1.44513e-21 8.9943e-22 8.98828e-22 4.16256e-22 3.08588e-22 3.15127e-22
13.7736 1.3906e-20 1.43198e-21 8.91244e-22 8.90643e-22 4.12503e-22 3.05854e-22 3.12388e-22
13.8053 1.37786e-20 1.41896e-21 8.83135e-22 8.82534e-22 4.08787e-22 3.03147e-22 3.0967e-22
13.8372 1.36523e-20 1.40605e-21 8.75101e-22 8.74501e-22 4.05107e-22 3.00469e-22 3.0699e-22
13.8691 1.35272e-20 1.39327e-21 8.67141e-22 8.66542e-22 4.01463e-22 2.97818e-22 3.04332e-22
13.9011 1.34032e-20 1.3806e-21 8.59256e-22 8.58658e-22 3.97854e-22 2.95194e-22 3.01703e-22
13.9331 1.32804e-20 1.36805e-21 8.51444e-22 8.50847e-22 3.94281e-22 2.92598e-22 2.99095e-22
13.9652 1.31587e-20 1.35561e-21 8.43705e-22 8.43109e-22 3.90744e-22 2.90029e-22 2.96517e-22
13.9974 1.30381e-20 1.34329e-21 8.36039e-22 8.35443e-22 3.87241e-22 2.87487e-22 2.93968e-22
14.0297 1.29187e-20 1.33108e-21 8.28444e-22 8.27848e-22 3.83774e-22 2.84972e-22 2.91447e-22
14.0621 1.28003e-20 1.31899e-21 8.20919e-22 8.20325e-22 3.80341e-22 2.82484e-22 2.88956e-22
14.0945 1.2683e-20 1.307e-21 8.13466e-22 8.12872e-22 3.76943e-22 2.80023e-22 2.86485e-22
14.127 1.25668e-20 1.29513e-21 8.06082e-22 8.05489e-22 3.73579e-22 2.77589e-22 2.84043e-22
14.1596 1.24516e-20 1.28337e-21 7.98767e-22 7.98175e-22 3.70249e-22 2.75181e-22 2.8163e-22
14.1922 1.23375e-20 1.27172e-21 7.91521e-22 7.90929e-22 3.66953e-22 2.728e-22 2.79237e-22
14.225 1.22244e-20 1.26017e-21 7.84343e-22 7.83752e-22 3.63691e-22 2.70446e-22 2.7688e-22
14.2578 1.21124e-20 1.24874e-21 7.77233e-22 7.76643e-22 3.60463e-22 2.68119e-22 2.74544e-22
14.2906 1.20014e-20 1.2374e-21 7.7019e-22 7.696e-22 3.57268e-22 2.65818e-22 2.72229e-22
14.3236 1.18915e-20 1.22618e-21 7.63213e-22 7.62625e-22 3.54107e-22 2.63543e-22 2.6995e-22
14.3566 1.17825e-20 1.21505e-21 7.56303e-22 7.55715e-22 3.50979e-22 2.61296e-22 2.67691e-22
14.3897 1.16745e-20 1.20403e-21 7.49457e-22 7.4887e-22 3.47885e-22 2.59075e-22 2.65462e-22
14.4229 1.15676e-20 1.19312e-21 7.42677e-22 7.42091e-22 3.44823e-22 2.56881e-22 2.6326e-22
14.4562 1.14616e-20 1.1823e-21 7.35962e-22 7.35376e-22 3.41795e-22 2.54714e-22 2.61086e-22
14.4895 1.13566e-20 1.17159e-21 7.2931e-22 7.28726e-22 3.38801e-22 2.52574e-22 2.58934e-22
14.5229 1.12525e-20 1.16097e-21 7.22723e-22 7.22139e-22 3.35839e-22 2.50462e-22 2.56812e-22
14.5564 1.11494e-20 1.15046e-21 7.16198e-22 7.15615e-22 3.3291e-22 2.48376e-22 2.54716e-22
14.59 1.10473e-20 1.14004e-21 7.09737e-22 7.09155e-22 3.30015e-22 2.46319e-22 2.5265e-22
14.6236 1.0946e-20 1.12972e-21 7.03337e-22 7.02756e-22 3.27153e-22 2.44289e-22 2.50608e-22
14.6573 1.08457e-20 1.1195e-21 6.97e-22 6.9642e-22 3.24325e-22 2.42287e-22 2.48593e-22
14.6911 1.07464e-20 1.10937e-21 6.90725e-22 6.90145e-22 3.2153e-22 2.40314e-22 2.46609e-22
14.725 1.06479e-20 1.09934e-21 6.84511e-22 6.83932e-22 3.18769e-22 2.3837e-22 2.44655e-22
14.759 1.05504e-20 1.0894e-21 6.78358e-22 6.7778e-22 3.16042e-22 2.36454e-22 2.4273e-22
14.793 1.04537e-20 1.07956e-21 6.72265e-22 6.71689e-22 3.13349e-22 2.34569e-22 2.4083e-22
14.8271 1.03579e-20 1.06981e-21 6.66233e-22 6.65658e-22 3.1069e-22 2.32714e-22 2.38962e-22
14.8613 1.0263e-20 1.06015e-21 6.60262e-22 6.59687e-22 3.08067e-22 2.30889e-22 2.37125e-22
14.8956 1.0169e-20 1.05058e-21 6.5435e-22 6.53777e-22 3.05479e-22 2.29096e-22 2.35321e-22
14.9299 1.00758e-20 1.04111e-21 6.48498e-22 6.47926e-22 3.02926e-22 2.27336e-22 2.33543e-22
14.9644 9.98354e-21 1.03172e-21 6.42707e-22 6.42135e-22 3.0041e-22 2.25608e-22 2.31805e-22
14.9989 9.89208e-21 1.02243e-21 6.36974e-22 6.36404e-22 2.9793e-22 2.23914e-22 2.30095e-22
15.0335 9.80146e-21 1.01323e-21 6.31301e-22 6.30732e-22 2.95488e-22 2.22255e-22 2.28421e-22
15.0681 9.71167e-21 1.00411e-21 6.25688e-22 6.2512e-22 2.93085e-22 2.20633e-22 2.2678e-22
15.1029 9.62271e-21 9.95084e-22 6.20135e-22 6.19567e-22 2.90721e-22 2.19048e-22 2.25179e-22
15.1377 9.53456e-21 9.86146e-22 6.14641e-22 6.14075e-22 2.88397e-22 2.17501e-22 2.23615e-22
15.1726 9.44722e-21 9.77296e-22 6.09208e-22 6.08642e-22 2.86115e-22 2.15996e-22 2.22089e-22
15.2076 9.36069e-21 9.68534e-22 6.03834e-22 6.0327e-22 2.83876e-22 2.14532e-22 2.20608e-22
15.2427 9.27494e-21 9.59859e-22 5.98522e-22 5.97958e-22 2.81681e-22 2.13113e-22 2.19169e-22
15.2778 9.18999e-21 9.51271e-22 5.9327e-22 5.92708e-22 2.79532e-22 2.1174e-22 2.17773e-22
15.3131 9.10581e-21 9.4277e-22 5.8808e-22 5.87519e-22 2.7743e-22 2.10417e-22 2.16431e-22
15.3484 9.02241e-21 9.34357e-22 5.82953e-22 5.82393e-22 2.7538e-22 2.09145e-22 2.15135e-22
15.3838 8.93977e-21 9.26031e-22 5.77888e-22 5.7733e-22 2.73381e-22 2.07929e-22 2.13895e-22
15.4192 8.85789e-21 9.17793e-22 5.72889e-22 5.72331e-22 2.71438e-22 2.06772e-22 2.12708e-22
15.4548 8.77677e-21 9.09642e-22 5.67954e-22 5.67399e-22 2.69554e-22 2.05677e-22 2.11587e-22
15.4904 8.69639e-21 9.0158e-22 5.63087e-22 5.62533e-22 2.67732e-22 2.0465e-22 2.1053e-22
15.5261 8.61675e-21 8.93607e-22 5.58289e-22 5.57736e-22 2.65977e-22 2.03696e-22 2.09545e-22
15.5619 8.53784e-21 8.85724e-22 5.53562e-22 5.5301e-22 2.64292e-22 2.02821e-22 2.08637e-22
15.5978 8.45965e-21 8.77933e-22 5.48908e-22 5.48358e-22 2.62685e-22 2.02031e-22 2.07812e-22
15.6338 8.38219e-21 8.70234e-22 5.44331e-22 5.43782e-22 2.61161e-22 2.01336e-22 2.0708e-22
15.6699 8.30544e-21 8.62629e-22 5.39833e-22 5.39286e-22 2.59727e-22 2.00743e-22 2.06448e-22
15.706 8.22939e-21 8.55121e-22 5.3542e-22 5.34874e-22 2.58393e-22 2.00263e-22 2.05925e-22
15.7422 8.15405e-21 8.47712e-22 5.31095e-22 5.30551e-22 2.57167e-22 1.99908e-22 2.05524e-22
15.7785 8.0794e-21 8.40406e-22 5.26865e-22 5.26323e-22 2.56062e-22 1.99692e-22 2.05259e-22
15.8149 8.00544e-21 8.33207e-22 5.22737e-22 5.22196e-22 2.55092e-22 1.99632e-22 2.05146e-22
15.8514 7.93216e-21 8.26119e-22 5.18718e-22 5.1818e-22 2.54272e-22 1.99747e-22 2.05204e-22
15.8879 7.85956e-21 8.19149e-22 5.1482e-22 5.14283e-22 2.53622e-22 2.00059e-22 2.05454e-22
15.9246 7.78763e-21 8.12303e-22 5.11054e-22 5.10519e-22 2.53164e-22 2.00594e-22 2.05921e-22
15.9613 7.71637e-21 8.05593e-22 5.07435e-22 5.06902e-22 2.52926e-22 2.01385e-22 2.06641e-22
15.9981 7.64577e-21 7.99027e-22 5.03981e-22 5.0345e-22 2.5294e-22 2.02469e-22 2.07646e-22
16.035 7.57583e-21 7.92621e-22 5.00714e-22 5.00187e-22 2.53248e-22 2.03892e-22 2.08982e-22
16.072 7.50655e-21 7.86393e-22 4.97664e-22 4.97139e-22 2.53898e-22 2.05709e-22 2.10704e-22
16.109 7.43791e-21 7.80366e-22 4.94865e-22 4.94343e-22 2.54949e-22 2.07987e-22 2.12883e-22
16.1462 7.36992e-21 7.74567e-22 4.92362e-22 4.91843e-22 2.56478e-22 2.10809e-22 2.15589e-22
16.1834 7.30258e-21 7.69036e-22 4.90212e-22 4.89697e-22 2.58579e-22 2.14277e-22 2.18938e-22
16.2207 7.23589e-21 7.6382e-22 4.88491e-22 4.8798e-22 2.61372e-22 2.18522e-22 2.23051e-22
16.2581 7.16984e-21 7.58987e-22 4.87298e-22 4.86791e-22 2.65009e-22 2.23706e-22 2.28091e-22
16.2956 7.10444e-21 7.54624e-22 4.86764e-22 4.86263e-22 2.6969e-22 2.30041e-22 2.34264e-22
16.3332 7.03971e-21 7.50854e-22 4.8707e-22 4.86575e-22 2.75679e-22 2.37801e-22 2.41843e-22
